Data Set 1:Time(s),Data Set 1:Sound Pressure
0,0.11158446967601776
1.0000000000000001e-05,0.13812103867530823
2.0000000000000002e-05,0.16168670356273651
3.0000000000000001e-05,0.1837921142578125
4.0000000000000003e-05,0.2039337158203125
5.0000000000000002e-05,0.22367247939109802
6.0000000000000002e-05,0.242706298828125
6.9999999999999994e-05,0.26174011826515198
8.0000000000000007e-05,0.27966612577438354
9.0000000000000006e-05,0.29371491074562073
0.0001,0.30408781766891479
0.00011,0.31239622831344604
0.00012,0.32135924696922302
0.00012999999999999999,0.32886201143264771
0.00013999999999999999,0.33359527587890625
0.00014999999999999999,0.33419951796531677
0.00016000000000000001,0.33273926377296448
0.00017000000000000001,0.33198395371437073
0.00018000000000000001,0.33163148164749146
0.00019000000000000001,0.32956695556640625
0.00020000000000000001,0.32458192110061646
0.00021000000000000001,0.31778413057327271
0.00022000000000000001,0.31154021620750427
0.00023000000000000001,0.30695801973342896
0.00024000000000000001,0.30167084932327271
0.00025000000000000001,0.29376524686813354
0.00025999999999999998,0.28455048799514771
0.00027,0.27599030733108521
0.00027999999999999998,0.26848754286766052
0.00029,0.26048126816749573
0.00029999999999999997,0.25005799531936646
0.00031,0.23741912841796875
0.00032000000000000003,0.22493132948875427
0.00033,0.2129974365234375
0.00034000000000000002,0.20000609755516052
0.00035,0.18464812636375427
0.00036000000000000002,0.16863556206226349
0.00036999999999999999,0.15151520073413849
0.00038000000000000002,0.13494873046875
0.00038999999999999999,0.11823119968175888
0.00040000000000000002,0.10065765678882599
0.00040999999999999999,0.082630917429924011
0.00042000000000000002,0.064906314015388489
0.00042999999999999999,0.046426393091678619
0.00044000000000000002,0.0297088623046875
0.00044999999999999999,0.01394805870950222
0.00046000000000000001,-0.0012084960471838713
0.00046999999999999999,-0.01636505126953125
0.00048000000000000001,-0.03101806715130806
0.00048999999999999998,-0.0438079833984375
0.00050000000000000001,-0.05392913892865181
0.00051000000000000004,-0.063294984400272369
0.00051999999999999995,-0.073567196726799011
0.00052999999999999998,-0.082278445363044739
0.00054000000000000001,-0.08988189697265625
0.00055000000000000003,-0.095622256398200989
0.00055999999999999995,-0.10141296684741974
0.00056999999999999998,-0.10846252739429474
0.00058,-0.11641845852136612
0.00059000000000000003,-0.12583465874195099
0.00059999999999999995,-0.13540191948413849
0.00060999999999999997,-0.14537200331687927
0.00062,-0.15720519423484802
0.00063000000000000003,-0.17125396430492401
0.00064000000000000005,-0.18716582655906677
0.00064999999999999997,-0.20378264784812927
0.00066,-0.21979522705078125
0.00067000000000000002,-0.2361602783203125
0.00068000000000000005,-0.25323027372360229
0.00068999999999999997,-0.27050170302391052
0.00069999999999999999,-0.28641358017921448
0.00071000000000000002,-0.30016022920608521
0.00072000000000000005,-0.31133881211280823
0.00072999999999999996,-0.32070463895797729
0.00073999999999999999,-0.32855987548828125
0.00075000000000000002,-0.33319243788719177
0.00076000000000000004,-0.33500519394874573
0.00076999999999999996,-0.333343505859375
0.00077999999999999999,-0.32876127958297729
0.00079000000000000001,-0.32085570693016052
0.00080000000000000004,-0.31224519014358521
0.00080999999999999996,-0.30247649550437927
0.00081999999999999998,-0.28963622450828552
0.00083000000000000001,-0.274932861328125
0.00084000000000000003,-0.26058197021484375
0.00084999999999999995,-0.24754028022289276
0.00085999999999999998,-0.236663818359375
0.00087000000000000001,-0.22503204643726349
0.00088000000000000003,-0.21214142441749573
0.00088999999999999995,-0.20116424560546875
0.00089999999999999998,-0.19320830702781677
0.00091,-0.18691405653953552
0.00092000000000000003,-0.17951202392578125
0.00093000000000000005,-0.17140503227710724
0.00093999999999999997,-0.16344909369945526
0.00095,-0.1555938720703125
0.00096000000000000002,-0.14829254150390625
0.00097000000000000005,-0.13897705078125
0.00097999999999999997,-0.12749633193016052
0.00098999999999999999,-0.11425323784351349
0.001,-0.10060729831457138
0.00101,-0.086457826197147369
0.0010200000000000001,-0.071049496531486511
0.0010300000000000001,-0.053526304662227631
0.0010399999999999999,-0.03424072265625
0.0010499999999999999,-0.014401244930922985
0.00106,0.00428009033203125
0.00107,0.02396850660443306
0.00108,0.04552001878619194
0.00109,0.068330384790897369
0.0011000000000000001,0.0901336669921875
0.0011100000000000001,0.10896606743335724
0.0011199999999999999,0.12779846787452698
0.0011299999999999999,0.14889678359031677
0.00114,0.17080077528953552
0.00115,0.190338134765625
0.00116,0.20750884711742401
0.00117,0.22276611626148224
0.0011800000000000001,0.2391815185546875
0.0011900000000000001,0.25700682401657104
0.0011999999999999999,0.2724151611328125
0.0012099999999999999,0.28470152616500854
0.0012199999999999999,0.29482269287109375
0.00123,0.30454102158546448
0.00124,0.31400758028030396
0.00125,0.32307130098342896
0.0012600000000000001,0.32911378145217896
0.0012700000000000001,0.33168181777000427
0.0012800000000000001,0.33319243788719177
0.0012899999999999999,0.335357666015625
0.0012999999999999999,0.33701935410499573
0.00131,0.33641511201858521
0.00132,0.33289033174514771
0.00133,0.32760316133499146
0.00134,0.32271879911422729
0.0013500000000000001,0.31788483262062073
0.0013600000000000001,0.31194305419921875
0.0013699999999999999,0.30378571152687073
0.0013799999999999999,0.29326170682907104
0.00139,0.28188171982765198
0.0014,0.27080383896827698
0.00141,0.2593231201171875
0.00142,0.24633178114891052
0.0014300000000000001,0.23021849989891052
0.0014400000000000001,0.21143646538257599
0.0014499999999999999,0.19351044297218323
0.0014599999999999999,0.17633971571922302
0.00147,0.15896758437156677
0.00148,0.14018554985523224
0.00149,0.11969146877527237
0.0015,0.099247738718986511
0.0015100000000000001,0.082530215382575989
0.0015200000000000001,0.068632505834102631
0.0015299999999999999,0.05362701416015625
0.0015399999999999999,0.03781585767865181
0.0015499999999999999,0.02336425706744194
0.00156,0.01268920861184597
0.00157,0.0049346922896802425
0.00158,-0.0016616821521893144
0.0015900000000000001,-0.0093658445402979851
0.0016000000000000001,-0.01807708665728569
0.0016100000000000001,-0.02552947960793972
0.0016199999999999999,-0.03006133995950222
0.0016299999999999999,-0.035902403295040131
0.00164,-0.043908692896366119
0.00165,-0.053475953638553619
0.00166,-0.064805604517459869
0.00167,-0.076487734913825989
0.0016800000000000001,-0.08837127685546875
0.0016900000000000001,-0.10242004692554474
0.0016999999999999999,-0.11918792873620987
0.0017099999999999999,-0.13691253960132599
0.00172,-0.15493926405906677
0.00173,-0.17246246337890625
0.00174,-0.18953247368335724
0.00175,-0.20771026611328125
0.0017600000000000001,-0.22583770751953125
0.0017700000000000001,-0.24230346083641052
0.0017799999999999999,-0.25700682401657104
0.0017899999999999999,-0.27019959688186646
0.0018,-0.28183135390281677
0.00181,-0.2925567626953125
0.00182,-0.30182188749313354
0.00183,-0.30922394990921021
0.0018400000000000001,-0.31410828232765198
0.0018500000000000001,-0.317230224609375
0.0018600000000000001,-0.3207550048828125
0.0018699999999999999,-0.32427978515625
0.0018799999999999999,-0.32533723115921021
0.00189,-0.32382661104202271
0.0019,-0.32015076279640198
0.00191,-0.31692808866500854
0.00192,-0.31466215848922729
0.0019300000000000001,-0.31043243408203125
0.0019400000000000001,-0.30292969942092896
0.0019499999999999999,-0.29411774873733521
0.0019599999999999999,-0.28510436415672302
0.00197,-0.27568817138671875
0.00198,-0.26591950654983521
0.00199,-0.254791259765625
0.002,-0.24169921875
0.0020100000000000001,-0.22739867866039276
0.0020200000000000001,-0.21370239555835724
0.0020300000000000001,-0.20050963759422302
0.0020400000000000001,-0.18636016547679901
0.0020500000000000002,-0.17110291123390198
0.0020600000000000002,-0.15549317002296448
0.0020699999999999998,-0.14124298095703125
0.0020799999999999998,-0.12764739990234375
0.0020899999999999998,-0.11339721828699112
0.0020999999999999999,-0.098139956593513489
0.0021099999999999999,-0.083436585962772369
0.0021199999999999999,-0.069639585912227631
0.0021299999999999999,-0.057252503931522369
0.00214,-0.04426116868853569
0.00215,-0.02895355224609375
0.00216,-0.013645934872329235
0.0021700000000000001,0.0013092041481286287
0.0021800000000000001,0.01475372351706028
0.0021900000000000001,0.0287017822265625
0.0022000000000000001,0.04526824876666069
0.0022100000000000002,0.063647463917732239
0.0022200000000000002,0.081674195826053619
0.0022300000000000002,0.09944915771484375
0.0022399999999999998,0.11717376857995987
0.0022499999999999998,0.13585510849952698
0.0022599999999999999,0.15619811415672302
0.0022699999999999999,0.17633971571922302
0.0022799999999999999,0.19507141411304474
0.0022899999999999999,0.21309813857078552
0.0023,0.23172912001609802
0.00231,0.24869842827320099
0.00232,0.26471099257469177
0.00233,0.27886047959327698
0.0023400000000000001,0.29124754667282104
0.0023500000000000001,0.3021240234375
0.0023600000000000001,0.31143951416015625
0.0023700000000000001,0.31813660264015198
0.0023800000000000002,0.32211455702781677
0.0023900000000000002,0.32533723115921021
0.0023999999999999998,0.32624357938766479
0.0024099999999999998,0.32508546113967896
0.0024199999999999998,0.32286986708641052
0.0024299999999999999,0.32005006074905396
0.0024399999999999999,0.31561890244483948
0.0024499999999999999,0.31043243408203125
0.0024599999999999999,0.30408781766891479
0.00247,0.29779356718063354
0.00248,0.29215392470359802
0.00249,0.2860107421875
0.0025000000000000001,0.27835693955421448
0.0025100000000000001,0.268890380859375
0.0025200000000000001,0.25937348604202271
0.0025300000000000001,0.25046080350875854
0.0025400000000000002,0.24190063774585724
0.0025500000000000002,0.23087310791015625
0.0025600000000000002,0.21737822890281677
0.0025699999999999998,0.20222167670726776
0.0025799999999999998,0.18711547553539276
0.0025899999999999999,0.17185822129249573
0.0025999999999999999,0.15544280409812927
0.0026099999999999999,0.13671112060546875
0.0026199999999999999,0.11626739799976349
0.00263,0.095974728465080261
0.00264,0.077243044972419739
0.00265,0.05946807935833931
0.00266,0.041642762720584869
0.0026700000000000001,0.02371673658490181
0.0026800000000000001,0.0069488524459302425
0.0026900000000000001,-0.0063446043059229851
0.0027000000000000001,-0.0176239013671875
0.0027100000000000002,-0.02799682691693306
0.0027200000000000002,-0.0387725830078125
0.0027299999999999998,-0.048239134252071381
0.0027399999999999998,-0.05518798902630806
0.0027499999999999998,-0.060072325170040131
0.0027599999999999999,-0.065661624073982239
0.0027699999999999999,-0.073416136205196381
0.0027799999999999999,-0.082479856908321381
0.0027899999999999999,-0.0911407470703125
0.0028,-0.098844908177852631
0.00281,-0.10896606743335724
0.00282,-0.12291412055492401
0.0028300000000000001,-0.13892669975757599
0.0028400000000000001,-0.15534210205078125
0.0028500000000000001,-0.17080077528953552
0.0028600000000000001,-0.1868133544921875
0.0028700000000000002,-0.20499114692211151
0.0028800000000000002,-0.22377319633960724
0.0028900000000000002,-0.24139709770679474
0.0028999999999999998,-0.25740966200828552
0.0029099999999999998,-0.27196198701858521
0.0029199999999999999,-0.28540650010108948
0.0029299999999999999,-0.29698792099952698
0.0029399999999999999,-0.30600127577781677
0.0029499999999999999,-0.31284943222999573
0.00296,-0.31828767061233521
0.00297,-0.321258544921875
0.00298,-0.32191315293312073
0.00299,-0.32040253281593323
0.0030000000000000001,-0.31733092665672302
0.0030100000000000001,-0.31390684843063354
0.0030200000000000001,-0.30982819199562073
0.0030300000000000001,-0.30408781766891479
0.0030400000000000002,-0.29698792099952698
0.0030500000000000002,-0.29008942842483521
0.0030599999999999998,-0.28334197402000427
0.0030699999999999998,-0.27533569931983948
0.0030799999999999998,-0.2673797607421875
0.0030899999999999999,-0.25967559218406677
0.0030999999999999999,-0.25202178955078125
0.0031099999999999999,-0.24502258002758026
0.0031199999999999999,-0.23681488633155823
0.00313,-0.22744902968406677
0.00314,-0.21863707900047302
0.00315,-0.21053008735179901
0.00316,-0.20096282660961151
0.0031700000000000001,-0.19008636474609375
0.0031800000000000001,-0.17754821479320526
0.0031900000000000001,-0.16501006484031677
0.0032000000000000002,-0.15237121284008026
0.0032100000000000002,-0.13882598280906677
0.0032200000000000002,-0.12326660007238388
0.0032299999999999998,-0.10675048828125
0.0032399999999999998,-0.089982606470584869
0.0032499999999999999,-0.072509765625
0.0032599999999999999,-0.05382842943072319
0.0032699999999999999,-0.03449249267578125
0.0032799999999999999,-0.01324310339987278
0.00329,0.00881195068359375
0.0033,0.03081665001809597
0.00331,0.052468873560428619
0.00332,0.074826046824455261
0.0033300000000000001,0.097988888621330261
0.0033400000000000001,0.12105102837085724
0.0033500000000000001,0.14290466904640198
0.0033600000000000001,0.1636505126953125
0.0033700000000000002,0.18394318222999573
0.0033800000000000002,0.20317840576171875
0.0033899999999999998,0.22125549614429474
0.0033999999999999998,0.23751983046531677
0.0034099999999999998,0.25156861543655396
0.0034199999999999999,0.26355284452438354
0.0034299999999999999,0.27518463134765625
0.0034399999999999999,0.285003662109375
0.0034499999999999999,0.29316100478172302
0.00346,0.2996063232421875
0.00347,0.30469208955764771
0.00348,0.30922394990921021
0.00349,0.31274873018264771
0.0035000000000000001,0.31476289033889771
0.0035100000000000001,0.31561890244483948
0.0035200000000000001,0.31622314453125
0.0035300000000000002,0.31687775254249573
0.0035400000000000002,0.31717985868453979
0.0035500000000000002,0.31612244248390198
0.0035599999999999998,0.31436005234718323
0.0035699999999999998,0.31164091825485229
0.0035799999999999998,0.30932465195655823
0.0035899999999999999,0.30574950575828552
0.0035999999999999999,0.30031126737594604
0.0036099999999999999,0.29321137070655823
0.00362,0.2845001220703125
0.00363,0.27382507920265198
0.00364,0.26148834824562073
0.00365,0.24784240126609802
0.0036600000000000001,0.23268584907054901
0.0036700000000000001,0.21657256782054901
0.0036800000000000001,0.19879761338233948
0.0036900000000000001,0.18036803603172302
0.0037000000000000002,0.162139892578125
0.0037100000000000002,0.14426422119140625
0.0037200000000000002,0.12709350883960724
0.0037299999999999998,0.11113128811120987
0.0037399999999999998,0.0961761474609375
0.0037499999999999999,0.08333587646484375
0.0037599999999999999,0.072056576609611511
0.0037699999999999999,0.06112975999712944
0.0037799999999999999,0.051763914525508881
0.00379,0.04426116868853569
0.0038,0.03897399827837944
0.00381,0.033636473119258881
0.00382,0.0276947021484375
0.0038300000000000001,0.0206451416015625
0.0038400000000000001,0.01369628868997097
0.0038500000000000001,0.0058914185501635075
0.0038600000000000001,-0.0029205321334302425
0.0038700000000000002,-0.013645934872329235
0.0038800000000000002,-0.02744293212890625
0.0038899999999999998,-0.044210813939571381
0.0038999999999999998,-0.06319427490234375
0.0039100000000000003,-0.083134457468986511
0.0039199999999999999,-0.10433349758386612
0.0039300000000000003,-0.12613677978515625
0.0039399999999999999,-0.14950104057788849
0.0039500000000000004,-0.17412415146827698
0.00396,-0.19753876328468323
0.0039699999999999996,-0.21868744492530823
0.00398,-0.23711700737476349
0.0039899999999999996,-0.25222319364547729
0.0040000000000000001,-0.26627197861671448
0.0040099999999999997,-0.27911224961280823
0.0040200000000000001,-0.2895355224609375
0.0040299999999999997,-0.29588013887405396
0.0040400000000000002,-0.29804533720016479
0.0040499999999999998,-0.29849854111671448
0.0040600000000000002,-0.29940491914749146
0.0040699999999999998,-0.29975739121437073
0.0040800000000000003,-0.29744109511375427
0.0040899999999999999,-0.29280853271484375
0.0041000000000000003,-0.28812560439109802
0.0041099999999999999,-0.28485259413719177
0.0041200000000000004,-0.28213348984718323
0.00413,-0.27855834364891052
0.0041399999999999996,-0.27417755126953125
0.00415,-0.27065277099609375
0.0041599999999999996,-0.26873931288719177
0.0041700000000000001,-0.26657408475875854
0.0041799999999999997,-0.26345214247703552
0.0041900000000000001,-0.25977629423141479
0.0041999999999999997,-0.25650328397750854
0.0042100000000000002,-0.25343170762062073
0.0042199999999999998,-0.24960479140281677
0.0042300000000000003,-0.2442169189453125
0.0042399999999999998,-0.23701629042625427
0.0042500000000000003,-0.22855682671070099
0.0042599999999999999,-0.21969452500343323
0.0042700000000000004,-0.21037903428077698
0.00428,-0.19915008544921875
0.0042900000000000004,-0.18676300346851349
0.0043,-0.17346954345703125
0.0043099999999999996,-0.15987396240234375
0.0043200000000000001,-0.14532165229320526
0.0043299999999999996,-0.13046722114086151
0.0043400000000000001,-0.11470641940832138
0.0043499999999999997,-0.0981903076171875
0.0043600000000000002,-0.08232879638671875
0.0043699999999999998,-0.064050294458866119
0.0043800000000000002,-0.04456329345703125
0.0043899999999999998,-0.02462310716509819
0.0044000000000000003,-0.0051361084915697575
0.0044099999999999999,0.01399841345846653
0.0044200000000000003,0.03398895263671875
0.0044299999999999999,0.05569152906537056
0.0044400000000000004,0.077998355031013489
0.00445,0.098895266652107239
0.0044600000000000004,0.11843261867761612
0.00447,0.13761749863624573
0.0044799999999999996,0.15785980224609375
0.0044900000000000001,0.17785033583641052
0.0044999999999999997,0.19678345322608948
0.0045100000000000001,0.21420593559741974
0.0045199999999999997,0.23067168891429901
0.0045300000000000002,0.24628143012523651
0.0045399999999999998,0.26113587617874146
0.0045500000000000002,0.27437895536422729
0.0045599999999999998,0.28641358017921448
0.0045700000000000003,0.29829710721969604
0.0045799999999999999,0.30887144804000854
0.0045900000000000003,0.317230224609375
0.0045999999999999999,0.32317200303077698
0.0046100000000000004,0.32795563340187073
0.00462,0.33243712782859802
0.0046299999999999996,0.33616334199905396
0.00464,0.337371826171875
0.0046499999999999996,0.33480376005172729
0.0046600000000000001,0.33052366971969604
0.0046699999999999997,0.32644501328468323
0.0046800000000000001,0.32196348905563354
0.0046899999999999997,0.3147125244140625
0.0047000000000000002,0.30423888564109802
0.0047099999999999998,0.29160004854202271
0.0047200000000000002,0.27936401963233948
0.0047299999999999998,0.26763153076171875
0.0047400000000000003,0.25469055771827698
0.0047499999999999999,0.23968505859375
0.0047600000000000003,0.22422638535499573
0.0047699999999999999,0.20947265625
0.0047800000000000004,0.19703522324562073
0.00479,0.18550415337085724
0.0047999999999999996,0.17296600341796875
0.00481,0.16027680039405823
0.0048199999999999996,0.14829254150390625
0.0048300000000000001,0.13872528076171875
0.0048399999999999997,0.13117218017578125
0.0048500000000000001,0.12241058051586151
0.0048599999999999997,0.11218871921300888
0.0048700000000000002,0.10247039794921875
0.0048799999999999998,0.093759156763553619
0.0048900000000000002,0.0861053466796875
0.0048999999999999998,0.077444456517696381
0.0049100000000000003,0.067373655736446381
0.0049199999999999999,0.05559081956744194
0.0049300000000000004,0.04355621337890625
0.0049399999999999999,0.031622312963008881
0.0049500000000000004,0.01893310621380806
0.00496,0.0051864623092114925
0.0049699999999999996,-0.0094665531069040298
0.0049800000000000001,-0.02563018724322319
0.0049899999999999996,-0.0428009033203125
0.0050000000000000001,-0.05971984937787056
0.0050099999999999997,-0.0765380859375
0.0050200000000000002,-0.094010926783084869
0.0050299999999999997,-0.11188659816980362
0.0050400000000000002,-0.13036651909351349
0.0050499999999999998,-0.14950104057788849
0.0050600000000000003,-0.16712494194507599
