Data Set 1:Time(s),Data Set 1:Sound Pressure
0,-0.33953705430030823
1.0000000000000001e-05,-0.33656615018844604
2.0000000000000002e-05,-0.33510589599609375
3.0000000000000001e-05,-0.33349457383155823
4.0000000000000003e-05,-0.32946625351905823
5.0000000000000002e-05,-0.32493439316749573
6.0000000000000002e-05,-0.32100677490234375
6.9999999999999994e-05,-0.31506499648094177
8.0000000000000007e-05,-0.30605164170265198
9.0000000000000006e-05,-0.29346314072608948
0.0001,-0.27906188368797302
0.00011,-0.26425781846046448
0.00012,-0.24930267035961151
0.00012999999999999999,-0.23137664794921875
0.00013999999999999999,-0.21078185737133026
0.00014999999999999999,-0.18857574462890625
0.00016000000000000001,-0.16601714491844177
0.00017000000000000001,-0.14406280219554901
0.00018000000000000001,-0.12241058051586151
0.00019000000000000001,-0.0991973876953125
0.00020000000000000001,-0.075430296361446381
0.00021000000000000001,-0.05256957933306694
0.00022000000000000001,-0.031571961939334869
0.00023000000000000001,-0.011883544735610485
0.00024000000000000001,0.00780487060546875
0.00025000000000000001,0.02829894982278347
0.00025999999999999998,0.047181703150272369
0.00027,0.064151003956794739
0.00027999999999999998,0.080213926732540131
0.00029,0.0961761474609375
0.00029999999999999997,0.11294402927160263
0.00031,0.12925872206687927
0.00032000000000000003,0.14360961318016052
0.00033,0.15750733017921448
0.00034000000000000002,0.17185822129249573
0.00035,0.18726654350757599
0.00036000000000000002,0.20212097465991974
0.00036999999999999999,0.21571655571460724
0.00038000000000000002,0.22800293564796448
0.00038999999999999999,0.24074248969554901
0.00040000000000000002,0.25403594970703125
0.00040999999999999999,0.26682585477828979
0.00042000000000000002,0.27765196561813354
0.00042999999999999999,0.28656464815139771
0.00044000000000000002,0.29552763700485229
0.00044999999999999999,0.30383604764938354
0.00046000000000000001,0.31038206815719604
0.00046999999999999999,0.31456145644187927
0.00048000000000000001,0.31687775254249573
0.00048999999999999998,0.31758269667625427
0.00050000000000000001,0.31828767061233521
0.00051000000000000004,0.31788483262062073
0.00051999999999999995,0.3157196044921875
0.00052999999999999998,0.31244659423828125
0.00054000000000000001,0.30806580185890198
0.00055000000000000003,0.30328217148780823
0.00055999999999999995,0.29950562119483948
0.00056999999999999998,0.29638367891311646
0.00058,0.29200285673141479
0.00059000000000000003,0.28631287813186646
0.00059999999999999995,0.28072357177734375
0.00060999999999999997,0.274932861328125
0.00062,0.26969605684280396
0.00063000000000000003,0.26330107450485229
0.00064000000000000005,0.25458985567092896
0.00064999999999999997,0.24361267685890198
0.00066,0.23203125596046448
0.00067000000000000002,0.21944275498390198
0.00068000000000000005,0.20358124375343323
0.00068999999999999997,0.18419495224952698
0.00069999999999999999,0.16193847358226776
0.00071000000000000002,0.13726501166820526
0.00072000000000000005,0.11148376762866974
0.00072999999999999996,0.08383941650390625
0.00073999999999999999,0.052468873560428619
0.00075000000000000002,0.019134521484375
0.00076000000000000004,-0.01409912109375
0.00076999999999999996,-0.046174623072147369
0.00077999999999999999,-0.078350827097892761
0.00079000000000000001,-0.11012420803308487
0.00080000000000000004,-0.14209899306297302
0.00080999999999999996,-0.1717071533203125
0.00081999999999999998,-0.198394775390625
0.00083000000000000001,-0.2210540771484375
0.00084000000000000003,-0.24129638075828552
0.00084999999999999995,-0.25912171602249146
0.00085999999999999998,-0.27417755126953125
0.00087000000000000001,-0.28676605224609375
0.00088000000000000003,-0.29779356718063354
0.00088999999999999995,-0.30610197782516479
0.00089999999999999998,-0.31214445829391479
0.00091,-0.31687775254249573
0.00092000000000000003,-0.32206422090530396
0.00093000000000000005,-0.32755279541015625
0.00093999999999999997,-0.33258819580078125
0.00095,-0.33611297607421875
0.00096000000000000002,-0.33747252821922302
0.00097000000000000005,-0.33963775634765625
0.00097999999999999997,-0.34356537461280823
0.00098999999999999999,-0.34673768281936646
0.001,-0.34900361299514771
0.00101,-0.3489532470703125
0.0010200000000000001,-0.34673768281936646
0.0010300000000000001,-0.34401854872703552
0.0010399999999999999,-0.34074553847312927
0.0010499999999999999,-0.3348541259765625
0.00106,-0.32614287734031677
0.00107,-0.31531676650047302
0.00108,-0.30217438936233521
0.00109,-0.28767243027687073
0.0011000000000000001,-0.27135771512985229
0.0011100000000000001,-0.25292816758155823
0.0011199999999999999,-0.23258514702320099
0.0011299999999999999,-0.21219177544116974
0.00114,-0.19109344482421875
0.00115,-0.16989441215991974
0.00116,-0.14773865044116974
0.00117,-0.12533111870288849
0.0011800000000000001,-0.10362853854894638
0.0011900000000000001,-0.083738707005977631
0.0011999999999999999,-0.065258786082267761
0.0012099999999999999,-0.046980284154415131
0.0012199999999999999,-0.02834930457174778
0.00123,-0.00981903076171875
0.00124,0.0074523924849927425
0.00125,0.02331390418112278
0.0012600000000000001,0.039276123046875
0.0012700000000000001,0.05609435960650444
0.0012800000000000001,0.073869325220584869
0.0012899999999999999,0.092198178172111511
0.0012999999999999999,0.11087951809167862
0.00131,0.12925872206687927
0.00132,0.14663085341453552
0.00133,0.16304627060890198
0.00134,0.18061980605125427
0.0013500000000000001,0.19940185546875
0.0013600000000000001,0.21788176894187927
0.0013699999999999999,0.234649658203125
0.0013799999999999999,0.24900054931640625
0.00139,0.2623443603515625
0.0014,0.27513426542282104
0.00141,0.28681641817092896
0.00142,0.29734039306640625
0.0014300000000000001,0.30423888564109802
0.0014400000000000001,0.30841827392578125
0.0014499999999999999,0.31098634004592896
0.0014599999999999999,0.31249696016311646
0.00147,0.31300050020217896
0.00148,0.31154021620750427
0.00149,0.30882111191749573
0.0015,0.30544739961624146
0.0015100000000000001,0.30182188749313354
0.0015200000000000001,0.29829710721969604
0.0015299999999999999,0.295074462890625
0.0015399999999999999,0.29134827852249146
0.0015499999999999999,0.28963622450828552
0.00156,0.28963622450828552
0.00157,0.28943482041358948
0.00158,0.28832703828811646
0.0015900000000000001,0.28726959228515625
0.0016000000000000001,0.28747099637985229
0.0016100000000000001,0.28802490234375
0.0016199999999999999,0.28671568632125854
0.0016299999999999999,0.28253632783889771
0.00164,0.27447968721389771
0.00165,0.26405638456344604
0.00166,0.2522735595703125
0.00167,0.23701629042625427
0.0016800000000000001,0.21611937880516052
0.0016900000000000001,0.19164733588695526
0.0016999999999999999,0.16450652480125427
0.0017099999999999999,0.13429412245750427
0.00172,0.10060729831457138
0.00173,0.063798524439334869
0.00174,0.02552947960793972
0.00175,-0.01168212853372097
0.0017600000000000001,-0.048239134252071381
0.0017700000000000001,-0.084645077586174011
0.0017799999999999999,-0.12024535983800888
0.0017899999999999999,-0.15322723984718323
0.0018,-0.180267333984375
0.00181,-0.20327910780906677
0.00182,-0.22276611626148224
0.00183,-0.24064178764820099
0.0018400000000000001,-0.25499266386032104
0.0018500000000000001,-0.26506346464157104
0.0018600000000000001,-0.27115631103515625
0.0018699999999999999,-0.27624207735061646
0.0018799999999999999,-0.28042143583297729
0.00189,-0.28455048799514771
0.0019,-0.28928375244140625
0.00191,-0.29401701688766479
0.00192,-0.29985809326171875
0.0019300000000000001,-0.30796509981155396
0.0019400000000000001,-0.31667631864547729
0.0019499999999999999,-0.32599180936813354
0.0019599999999999999,-0.33712005615234375
0.00197,-0.34920501708984375
0.00198,-0.359527587890625
0.00199,-0.36859130859375
0.002,-0.37508696317672729
0.0020100000000000001,-0.3791656494140625
0.0020200000000000001,-0.38047486543655396
0.0020300000000000001,-0.37730255722999573
0.0020400000000000001,-0.36944732069969177
0.0020500000000000002,-0.35721129179000854
0.0020600000000000002,-0.34074553847312927
0.0020699999999999998,-0.32166138291358948
0.0020799999999999998,-0.29950562119483948
0.0020899999999999998,-0.27392578125
0.0020999999999999999,-0.24602966010570526
0.0021099999999999999,-0.2180328369140625
0.0021199999999999999,-0.19134521484375
0.0021299999999999999,-0.16576537489891052
0.00214,-0.14089050889015198
0.00215,-0.11697234958410263
0.00216,-0.095974728465080261
0.0021700000000000001,-0.07880401611328125
0.0021800000000000001,-0.064553834497928619
0.0021900000000000001,-0.050958253443241119
0.0022000000000000001,-0.03872222825884819
0.0022100000000000002,-0.02653655968606472
0.0022200000000000002,-0.01520690880715847
0.0022300000000000002,-0.0043807984329760075
0.0022399999999999998,0.007049560546875
0.0022499999999999998,0.0201416015625
0.0022599999999999999,0.035650633275508881
0.0022699999999999999,0.05382842943072319
0.0022799999999999999,0.073114015161991119
0.0022899999999999999,0.093356326222419739
0.0023,0.11510924994945526
0.00231,0.13862457871437073
0.00232,0.16219024360179901
0.00233,0.18525238335132599
0.0023400000000000001,0.20715637505054474
0.0023500000000000001,0.22729797661304474
0.0023600000000000001,0.24557647109031677
0.0023700000000000001,0.26093444228172302
0.0023800000000000002,0.27155914902687073
0.0023900000000000002,0.28011932969093323
0.0023999999999999998,0.28716889023780823
0.0024099999999999998,0.29094544053077698
0.0024199999999999998,0.29064330458641052
0.0024299999999999999,0.28888091444969177
0.0024399999999999999,0.28565827012062073
0.0024499999999999999,0.28334197402000427
0.0024599999999999999,0.280975341796875
0.00247,0.27805480360984802
0.00248,0.27599030733108521
0.00249,0.27538603544235229
0.0025000000000000001,0.27654418349266052
0.0025100000000000001,0.27966612577438354
0.0025200000000000001,0.28414765000343323
0.0025300000000000001,0.29024046659469604
0.0025400000000000002,0.29799500107765198
0.0025500000000000002,0.30605164170265198
0.0025600000000000002,0.31375581026077271
0.0025699999999999998,0.32050323486328125
0.0025799999999999998,0.3257904052734375
0.0025899999999999999,0.32926481962203979
0.0025999999999999999,0.32966765761375427
0.0026099999999999999,0.32649534940719604
0.0026199999999999999,0.31884154677391052
0.00263,0.30690765380859375
0.00264,0.29160004854202271
0.00265,0.27226409316062927
0.00266,0.24748992919921875
0.0026700000000000001,0.21858672797679901
0.0026800000000000001,0.18766936659812927
0.0026900000000000001,0.15519103407859802
0.0027000000000000001,0.12024535983800888
0.0027100000000000002,0.082681275904178619
0.0027200000000000002,0.045167542994022369
0.0027299999999999998,0.0096176145598292351
0.0027399999999999998,-0.02371673658490181
0.0027499999999999998,-0.05594329908490181
0.0027599999999999999,-0.08686065673828125
0.0027699999999999999,-0.11561278998851776
0.0027799999999999999,-0.14068908989429474
0.0027899999999999999,-0.16138458251953125
0.0028,-0.17910918593406677
0.00281,-0.19537353515625
0.00282,-0.20957335829734802
0.0028300000000000001,-0.22185973823070526
0.0028400000000000001,-0.23182983696460724
0.0028500000000000001,-0.24059143662452698
0.0028600000000000001,-0.24884948134422302
0.0028700000000000002,-0.25786286592483521
0.0028800000000000002,-0.26818543672561646
0.0028900000000000002,-0.2794647216796875
0.0028999999999999998,-0.29094544053077698
0.0029099999999999998,-0.30257719755172729
0.0029199999999999999,-0.31541746854782104
0.0029299999999999999,-0.32896271347999573
0.0029399999999999999,-0.34301146864891052
0.0029499999999999999,-0.35559996962547302
0.00296,-0.36572113633155823
0.00297,-0.37347564101219177
0.00298,-0.37911528348922729
0.00299,-0.38143157958984375
0.0030000000000000001,-0.38042449951171875
0.0030100000000000001,-0.37548980116844177
0.0030200000000000001,-0.36713105440139771
0.0030300000000000001,-0.35504609346389771
0.0030400000000000002,-0.33893281221389771
0.0030500000000000002,-0.32005006074905396
0.0030599999999999998,-0.29955595731735229
0.0030699999999999998,-0.27805480360984802
0.0030799999999999998,-0.25625151395797729
0.0030899999999999999,-0.23359222710132599
0.0030999999999999999,-0.21078185737133026
0.0031099999999999999,-0.18912963569164276
0.0031199999999999999,-0.16944122314453125
0.00313,-0.15166625380516052
0.00314,-0.1354522705078125
0.00315,-0.12004394829273224
0.00316,-0.10604552924633026
0.0031700000000000001,-0.094715878367424011
0.0031800000000000001,-0.0845947265625
0.0031900000000000001,-0.073516845703125
0.0032000000000000002,-0.061582945287227631
0.0032100000000000002,-0.048188783228397369
0.0032200000000000002,-0.034844972193241119
0.0032299999999999998,-0.02024230919778347
0.0032399999999999998,-0.0025177001953125
0.0032499999999999999,0.01842956617474556
0.0032599999999999999,0.041441343724727631
0.0032699999999999999,0.064503476023674011
0.0032799999999999999,0.087817385792732239
0.00329,0.11264190822839737
0.0033,0.13892669975757599
0.00331,0.16425475478172302
0.00332,0.18792113661766052
0.0033300000000000001,0.20831450819969177
0.0033400000000000001,0.22624054551124573
0.0033500000000000001,0.24255523085594177
0.0033600000000000001,0.25640258193016052
0.0033700000000000002,0.26682585477828979
0.0033800000000000002,0.27453002333641052
0.0033899999999999998,0.27966612577438354
0.0033999999999999998,0.28173065185546875
0.0034099999999999998,0.28188171982765198
0.0034199999999999999,0.281982421875
0.0034299999999999999,0.28203278779983521
0.0034399999999999999,0.280975341796875
0.0034499999999999999,0.2794647216796875
0.00346,0.278961181640625
0.00347,0.27996826171875
0.00348,0.28309020400047302
0.00349,0.28737029433250427
0.0035000000000000001,0.2925567626953125
0.0035100000000000001,0.29824677109718323
0.0035200000000000001,0.30569916963577271
0.0035300000000000002,0.31345367431640625
0.0035400000000000002,0.3217620849609375
0.0035500000000000002,0.32966765761375427
0.0035599999999999998,0.33480376005172729
0.0035699999999999998,0.33661651611328125
0.0035799999999999998,0.33641511201858521
0.0035899999999999999,0.33480376005172729
0.0035999999999999999,0.33092650771141052
0.0036099999999999999,0.32135924696922302
0.00362,0.30559843778610229
0.00363,0.28686675429344177
0.00364,0.26647338271141052
0.00365,0.24361267685890198
0.0036600000000000001,0.21672363579273224
0.0036700000000000001,0.18555450439453125
0.0036800000000000001,0.15211944282054901
0.0036900000000000001,0.11873473972082138
0.0037000000000000002,0.085803225636482239
0.0037100000000000002,0.053727723658084869
0.0037200000000000002,0.02084655687212944
0.0037299999999999998,-0.0120849609375
0.0037399999999999998,-0.043203733861446381
0.0037499999999999999,-0.0709991455078125
0.0037599999999999999,-0.095622256398200989
0.0037699999999999999,-0.11797942966222763
0.0037799999999999999,-0.13978271186351776
0.00379,-0.16022643446922302
0.0038,-0.17714539170265198
0.00381,-0.19018706679344177
0.00382,-0.20277556777000427
0.0038300000000000001,-0.21526336669921875
0.0038400000000000001,-0.22785186767578125
0.0038500000000000001,-0.24008789658546448
0.0038600000000000001,-0.25182038545608521
0.0038700000000000002,-0.26299896836280823
0.0038800000000000002,-0.27518463134765625
0.0038899999999999998,-0.28933411836624146
0.0038999999999999998,-0.30454102158546448
0.0039100000000000003,-0.31984862685203552
0.0039199999999999999,-0.33329313993453979
0.0039300000000000003,-0.34532776474952698
0.0039399999999999999,-0.35826873779296875
0.0039500000000000004,-0.37085723876953125
0.00396,-0.38037413358688354
0.0039699999999999996,-0.38556060194969177
0.00398,-0.38666838407516479
0.0039899999999999996,-0.38556060194969177
0.0040000000000000001,-0.38238829374313354
0.0040099999999999997,-0.37493592500686646
0.0040200000000000001,-0.36199492216110229
0.0040299999999999997,-0.34573060274124146
0.0040400000000000002,-0.32820740342140198
0.0040499999999999998,-0.30992889404296875
0.0040600000000000002,-0.28938445448875427
0.0040699999999999998,-0.26632231473922729
0.0040800000000000003,-0.24230346083641052
0.0040899999999999999,-0.21954345703125
0.0041000000000000003,-0.19904938340187073
0.0041099999999999999,-0.1797637939453125
0.0041200000000000004,-0.16078034043312073
0.00413,-0.14225006103515625
0.0041399999999999996,-0.12653961777687073
0.00415,-0.11309508979320526
0.0041599999999999996,-0.1012115478515625
0.0041700000000000001,-0.089630126953125
0.0041799999999999997,-0.07830047607421875
0.0041900000000000001,-0.06646728515625
0.0041999999999999997,-0.054734803736209869
0.0042100000000000002,-0.04174346849322319
0.0042199999999999998,-0.02704009972512722
0.0042300000000000003,-0.010372924618422985
0.0042399999999999998,0.0084594730287790298
0.0042500000000000003,0.02814788743853569
0.0042599999999999999,0.04904479905962944
0.0042700000000000004,0.072207644581794739
0.00428,0.096780396997928619
0.0042900000000000004,0.12155456840991974
0.0043,0.14491882920265198
0.0043099999999999996,0.16672210395336151
0.0043200000000000001,0.18676300346851349
0.0043299999999999996,0.20539398491382599
0.0043400000000000001,0.22342070937156677
0.0043499999999999997,0.23847655951976776
0.0043600000000000002,0.24980621039867401
0.0043699999999999998,0.25776213407516479
0.0043800000000000002,0.26415711641311646
0.0043899999999999998,0.27009886503219604
0.0044000000000000003,0.2754364013671875
0.0044099999999999999,0.27865904569625854
0.0044200000000000003,0.27931365370750427
0.0044299999999999999,0.28001862764358521
0.0044400000000000004,0.28238525986671448
0.00445,0.28560790419578552
0.0044600000000000004,0.28938445448875427
0.00447,0.29361420869827271
0.0044799999999999996,0.29754179716110229
0.0044900000000000001,0.30318146944046021
0.0044999999999999997,0.31043243408203125
0.0045100000000000001,0.31783446669578552
0.0045199999999999997,0.32438048720359802
0.0045300000000000002,0.32991942763328552
0.0045399999999999998,0.33450165390968323
0.0045500000000000002,0.33747252821922302
0.0045599999999999998,0.33908385038375854
0.0045700000000000003,0.33817750215530396
0.0045799999999999999,0.33304136991500854
0.0045900000000000003,0.32397764921188354
0.0045999999999999999,0.31214445829391479
0.0046100000000000004,0.29834747314453125
0.00462,0.28168028593063354
0.0046299999999999996,0.26012879610061646
0.00464,0.23399505019187927
0.0046499999999999996,0.20715637505054474
0.0046600000000000001,0.180267333984375
0.0046699999999999997,0.15181732177734375
0.0046800000000000001,0.12039642035961151
0.0046899999999999997,0.087263487279415131
0.0047000000000000002,0.054734803736209869
0.0047099999999999998,0.02457275427877903
0.0047200000000000002,-0.0045822141692042351
0.0047299999999999998,-0.03303222730755806
0.0047400000000000003,-0.061029054224491119
0.0047499999999999999,-0.087565615773200989
0.0047600000000000003,-0.11077880859375
0.0047699999999999999,-0.13097076117992401
0.0047800000000000004,-0.15025635063648224
0.00479,-0.16788025200366974
0.0047999999999999996,-0.18364104628562927
0.00481,-0.19859619438648224
0.0048199999999999996,-0.21259459853172302
0.0048300000000000001,-0.22613982856273651
0.0048399999999999997,-0.23943328857421875
0.0048500000000000001,-0.25267639756202698
0.0048599999999999997,-0.26612091064453125
0.0048700000000000002,-0.28037109971046448
0.0048799999999999998,-0.29497376084327698
0.0048900000000000002,-0.30927428603172302
0.0048999999999999998,-0.32302093505859375
0.0049100000000000003,-0.33671721816062927
0.0049199999999999999,-0.35036316514015198
0.0049300000000000004,-0.36290130019187927
0.0049399999999999999,-0.37292176485061646
0.0049500000000000004,-0.37982025742530823
0.00496,-0.38455352187156677
0.0049699999999999996,-0.38827973604202271
0.0049800000000000001,-0.38883361220359802
0.0049899999999999996,-0.38495635986328125
0.0050000000000000001,-0.37684935331344604
0.0050099999999999997,-0.3660736083984375
0.0050200000000000002,-0.35303193330764771
0.0050299999999999997,-0.33717042207717896
0.0050400000000000002,-0.31778413057327271
0.0050499999999999998,-0.29663544893264771
0.0050600000000000003,-0.27518463134765625
